wavelength (nm),refractive index
300.193,1.502117342
300.885,1.501913919
301.578,1.501711642
302.273,1.501510501
302.97,1.50131049
303.669,1.5011116
304.369,1.500913825
305.07,1.500717157
305.774,1.500521589
306.478,1.500327112
307.185,1.500133721
307.893,1.499941406
308.603,1.499750162
309.314,1.499559981
310.027,1.499370855
310.742,1.499182776
311.458,1.498995738
312.176,1.498809727
312.896,1.498624737
313.617,1.498440787
314.34,1.498257858
315.065,1.498075944
315.791,1.497895035
316.519,1.497715125
317.249,1.497536207
317.98,1.497358275
318.713,1.497181321
319.448,1.49700534
320.184,1.496830325
320.922,1.49665627
321.662,1.496483167
322.404,1.496311013
323.147,1.496139799
323.892,1.49596952
324.638,1.49580017
325.387,1.495631743
326.137,1.495464234
326.889,1.495297635
327.642,1.495131942
328.398,1.494967148
329.155,1.494803249
329.913,1.494640237
330.674,1.494478108
331.436,1.494316856
332.2,1.494156475
332.966,1.49399696
333.734,1.493838305
334.503,1.493680505
335.274,1.493523555
336.047,1.493367449
336.822,1.493212181
337.598,1.493057747
338.376,1.492904142
339.156,1.492751359
339.938,1.492599394
340.722,1.492448243
341.507,1.492297899
342.294,1.492148357
343.084,1.491999613
343.874,1.491851662
344.667,1.491704499
345.462,1.491558118
346.258,1.491412516
347.056,1.491267686
347.856,1.491123625
348.658,1.490980327
349.462,1.490837788
350.268,1.490696003
351.075,1.490554968
351.884,1.490414677
352.695,1.490275127
353.509,1.490136312
354.323,1.489998228
355.14,1.489860871
355.959,1.489724236
356.779,1.489588319
357.602,1.489453114
358.426,1.489318619
359.253,1.489184828
360.081,1.489051737
360.911,1.488919342
361.743,1.488787639
362.577,1.488656623
363.413,1.48852629
364.25,1.488396636
365.09,1.488267657
365.932,1.488139349
366.775,1.488011707
367.621,1.487884728
368.468,1.487758408
369.317,1.487632741
370.169,1.487507726
371.022,1.487383357
371.877,1.48725963
372.735,1.487136542
373.594,1.487014089
374.455,1.486892268
375.318,1.486771073
376.184,1.486650501
377.051,1.486530549
377.92,1.486411213
378.791,1.48629249
379.664,1.486174374
380.54,1.486056863
381.417,1.485939954
382.296,1.485823641
383.177,1.485707923
384.061,1.485592795
384.946,1.485478253
385.833,1.485364295
386.723,1.485250916
387.614,1.485138114
388.508,1.485025884
389.404,1.484914223
390.301,1.484803129
391.201,1.484692596
392.103,1.484582623
393.007,1.484473206
393.913,1.484364341
394.821,1.484256025
395.731,1.484148254
396.643,1.484041027
397.557,1.483934338
398.474,1.483828186
399.392,1.483722566
400.313,1.483617476
401.236,1.483512913
402.161,1.483408873
403.088,1.483305353
404.017,1.48320235
404.949,1.483099861
405.882,1.482997883
406.818,1.482896413
407.756,1.482795448
408.696,1.482694985
409.638,1.482595021
410.582,1.482495553
411.528,1.482396577
412.477,1.482298092
413.428,1.482200094
414.381,1.48210258
415.336,1.482005548
416.294,1.481908994
417.253,1.481812915
418.215,1.48171731
419.179,1.481622174
420.146,1.481527506
421.114,1.481433302
422.085,1.48133956
423.058,1.481246277
424.033,1.48115345
425.011,1.481061077
425.99,1.480969155
426.972,1.480877681
427.957,1.480786652
428.943,1.480696067
429.932,1.480605922
430.923,1.480516214
431.917,1.480426942
432.912,1.480338102
433.91,1.480249692
434.91,1.480161709
435.913,1.480074152
436.918,1.479987017
437.925,1.479900302
438.935,1.479814004
439.946,1.479728121
440.961,1.479642651
441.977,1.479557591
442.996,1.479472939
444.017,1.479388691
445.041,1.479304847
446.067,1.479221403
447.095,1.479138358
448.126,1.479055708
449.159,1.478973452
450.194,1.478891587
451.232,1.47881011
452.272,1.478729021
453.315,1.478648315
454.36,1.478567992
455.407,1.478488048
456.457,1.478408482
457.509,1.478329291
458.564,1.478250473
459.621,1.478172026
460.681,1.478093948
461.743,1.478016237
462.807,1.47793889
463.874,1.477861905
464.943,1.47778528
466.015,1.477709013
467.089,1.477633102
468.166,1.477557544
469.245,1.477482339
470.327,1.477407483
471.411,1.477332975
472.498,1.477258812
473.587,1.477184992
474.679,1.477111514
475.773,1.477038376
476.87,1.476965575
477.969,1.476893109
479.071,1.476820977
480.175,1.476749176
481.282,1.476677705
482.392,1.476606562
483.504,1.476535744
484.618,1.47646525
485.736,1.476395077
486.855,1.476325225
487.978,1.476255691
489.102,1.476186473
490.23,1.476117569
491.36,1.476048977
492.493,1.475980696
493.628,1.475912724
494.766,1.475845059
495.907,1.475777699
497.05,1.475710643
498.196,1.475643888
499.344,1.475577432
500.495,1.475511275
501.649,1.475445413
502.805,1.475379846
503.964,1.475314572
505.126,1.475249589
506.291,1.475184895
507.458,1.475120488
508.628,1.475056368
509.8,1.474992531
510.975,1.474928977
512.153,1.474865703
513.334,1.474802709
514.517,1.474739992
515.703,1.47467755
516.892,1.474615383
518.084,1.474553488
519.278,1.474491865
520.475,1.47443051
521.675,1.474369423
522.877,1.474308602
524.083,1.474248045
525.291,1.474187751
526.502,1.474127718
527.716,1.474067946
528.932,1.474008431
530.151,1.473949173
531.373,1.473890169
532.598,1.47383142
533.826,1.473772922
535.057,1.473714675
536.29,1.473656677
537.526,1.473598926
538.766,1.473541421
540.008,1.473484161
541.252,1.473427144
542.5,1.473370368
543.751,1.473313832
545.004,1.473257535
546.261,1.473201475
547.52,1.473145651
548.782,1.473090061
550.047,1.473034704
551.315,1.472979578
552.586,1.472924683
553.86,1.472870016
555.137,1.472815576
556.416,1.472761363
557.699,1.472707373
558.985,1.472653607
560.273,1.472600063
561.565,1.472546739
562.859,1.472493634
564.157,1.472440746
565.457,1.472388075
566.761,1.472335619
568.067,1.472283377
569.377,1.472231347
570.689,1.472179527
572.005,1.472127918
573.324,1.472076517
574.645,1.472025324
575.97,1.471974336
577.298,1.471923552
578.629,1.471872972
579.962,1.471822594
581.299,1.471772417
582.639,1.471722439
583.983,1.471672659
585.329,1.471623077
586.678,1.47157369
588.031,1.471524498
589.386,1.471475499
590.745,1.471426692
592.107,1.471378076
593.471,1.471329649
594.84,1.471281411
596.211,1.471233361
597.585,1.471185496
598.963,1.471137816
600.344,1.47109032
601.728,1.471043006
603.115,1.470995874
604.505,1.470948922
605.898,1.470902149
607.295,1.470855554
608.695,1.470809135
610.098,1.470762892
611.505,1.470716823
612.914,1.470670928
614.327,1.470625205
615.744,1.470579653
617.163,1.470534271
618.586,1.470489057
620.012,1.470444012
621.441,1.470399133
622.874,1.470354419
624.309,1.47030987
625.749,1.470265484
627.191,1.47022126
628.637,1.470177198
630.086,1.470133295
631.539,1.470089552
632.994,1.470045966
634.454,1.470002538
635.916,1.469959265
637.382,1.469916147
638.851,1.469873183
640.324,1.469830371
641.8,1.469787711
643.28,1.469745202
644.763,1.469702842
646.249,1.469660631
647.739,1.469618567
649.232,1.46957665
650.729,1.469534878
652.229,1.469493251
653.732,1.469451767
655.239,1.469410426
656.75,1.469369226
658.264,1.469328167
659.781,1.469287247
661.302,1.469246466
662.827,1.469205823
664.354,1.469165316
665.886,1.469124944
667.421,1.469084708
668.96,1.469044605
670.502,1.469004634
672.047,1.468964796
673.597,1.468925088
675.149,1.46888551
676.706,1.468846061
678.266,1.46880674
679.829,1.468767546
681.396,1.468728479
682.967,1.468689536
684.542,1.468650717
686.12,1.468612022
687.701,1.46857345
689.287,1.468534999
690.876,1.468496668
692.468,1.468458457
694.065,1.468420365
695.665,1.468382391
697.268,1.468344533
698.876,1.468306792
700.487,1.468269166
702.101,1.468231654
703.72,1.468194256
705.342,1.46815697
706.968,1.468119796
708.598,1.468082732
710.231,1.468045778
711.869,1.468008934
713.51,1.467972197
715.154,1.467935568
716.803,1.467899045
718.455,1.467862628
720.112,1.467826316
721.772,1.467790107
723.436,1.467754001
725.103,1.467717998
726.775,1.467682096
728.45,1.467646294
730.129,1.467610592
731.813,1.467574989
733.5,1.467539483
735.19,1.467504075
736.885,1.467468763
738.584,1.467433547
740.287,1.467398425
741.993,1.467363397
743.704,1.467328462
745.418,1.46729362
747.136,1.467258868
748.859,1.467224208
750.585,1.467189637
752.315,1.467155155
754.05,1.467120761
755.788,1.467086454
757.53,1.467052235
759.276,1.467018101
761.027,1.466984052
762.781,1.466950087
764.539,1.466916205
766.302,1.466882406
768.068,1.466848689
769.839,1.466815054
771.614,1.466781498
773.392,1.466748022
775.175,1.466714624
776.962,1.466681305
778.753,1.466648063
780.548,1.466614897
782.348,1.466581807
784.151,1.466548791
785.959,1.46651585
787.771,1.466482982
789.587,1.466450187
791.407,1.466417464
793.231,1.466384812
795.06,1.46635223
796.893,1.466319717
798.73,1.466287274
800.571,1.466254899
802.417,1.466222591
804.266,1.466190349
806.12,1.466158174
807.979,1.466126064
809.841,1.466094018
811.708,1.466062035
813.579,1.466030116
815.455,1.465998259
817.335,1.465966463
819.219,1.465934728
821.107,1.465903053
823,1.465871438
824.897,1.465839881
826.799,1.465808381
828.705,1.465776939
830.615,1.465745554
832.53,1.465714223
834.449,1.465682948
836.373,1.465651728
838.301,1.46562056
840.233,1.465589446
842.17,1.465558383
844.112,1.465527373
846.057,1.465496412
848.008,1.465465502
849.963,1.465434641
851.922,1.465403829
853.886,1.465373064
855.854,1.465342347
857.827,1.465311676
859.805,1.465281051
861.787,1.465250471
863.773,1.465219935
865.765,1.465189443
867.76,1.465158995
869.761,1.465128588
871.766,1.465098223
873.776,1.465067899
875.79,1.465037615
877.809,1.465007371
879.832,1.464977165
881.86,1.464946998
883.893,1.464916868
885.931,1.464886775
887.973,1.464856718
890.02,1.464826697
892.072,1.46479671
894.128,1.464766758
896.19,1.464736838
898.255,1.464706952
900.326,1.464677097
902.402,1.464647274
904.482,1.464617482
906.567,1.464587719
908.657,1.464557986
910.751,1.464528282
912.851,1.464498605
914.955,1.464468956
917.064,1.464439334
919.179,1.464409737
921.297,1.464380166
923.421,1.46435062
925.55,1.464321097
927.684,1.464291598
929.822,1.464262121
931.966,1.464232666
934.114,1.464203233
936.267,1.46417382
938.426,1.464144427
940.589,1.464115053
942.757,1.464085698
944.93,1.464056361
947.109,1.464027042
949.292,1.463997739
951.48,1.463968452
953.674,1.46393918
955.872,1.463909923
958.076,1.46388068
960.284,1.46385145
962.498,1.463822233
964.717,1.463793028
966.941,1.463763834
969.17,1.463734651
971.404,1.463705478
973.643,1.463676314
975.888,1.463647159
978.137,1.463618012
980.392,1.463588873
982.652,1.46355974
984.918,1.463530613
987.188,1.463501492
989.464,1.463472375
991.745,1.463443263
994.031,1.463414154
996.322,1.463385047
998.619,1.463355943
1000.92,1.463326841
1003.23,1.463297739
1005.54,1.463268637
1007.86,1.463239535
1010.18,1.463210432
1012.51,1.463181326
1014.85,1.463152219
1017.18,1.463123108
1019.53,1.463093993
1021.88,1.463064874
1024.24,1.46303575
1026.6,1.46300662
1028.96,1.462977484
1031.34,1.46294834
1033.71,1.462919189
1036.1,1.46289003
1038.48,1.462860861
1040.88,1.462831683
1043.28,1.462802494
1045.68,1.462773294
1048.09,1.462744082
1050.51,1.462714858
1052.93,1.462685621
1055.36,1.462656371
1057.79,1.462627106
1060.23,1.462597826
1062.67,1.46256853
1065.12,1.462539218
1067.58,1.462509889
1070.04,1.462480542
1072.51,1.462451177
1074.98,1.462421793
1077.46,1.462392389
1079.94,1.462362965
1082.43,1.46233352
1084.93,1.462304053
1087.43,1.462274564
1089.93,1.462245052
1092.45,1.462215516
1094.96,1.462185956
1097.49,1.46215637
1100.02,1.462126759
1102.55,1.462097122
1105.1,1.462067458
1107.64,1.462037766
1110.2,1.462008045
1112.76,1.461978296
1115.32,1.461948516
1117.89,1.461918707
1120.47,1.461888866
1123.05,1.461858993
1125.64,1.461829088
1128.24,1.46179915
1130.84,1.461769178
1133.44,1.461739172
1136.06,1.46170913
1138.68,1.461679053
1141.3,1.461648939
1143.93,1.461618787
1146.57,1.461588598
1149.21,1.46155837
1151.86,1.461528103
1154.52,1.461497796
1157.18,1.461467448
1159.84,1.461437059
1162.52,1.461406627
1165.2,1.461376153
1167.88,1.461345635
1170.58,1.461315074
1173.28,1.461284467
1175.98,1.461253815
1178.69,1.461223116
1181.41,1.461192371
1184.13,1.461161578
1186.86,1.461130736
1189.6,1.461099846
1192.34,1.461068905
1195.09,1.461037914
1197.84,1.461006872
1200.6,1.460975778
1203.37,1.460944631
1206.15,1.460913431
1208.93,1.460882177
1211.71,1.460850868
1214.51,1.460819504
1217.31,1.460788083
1220.11,1.460756605
1222.93,1.46072507
1225.74,1.460693476
1228.57,1.460661823
1231.4,1.46063011
1234.24,1.460598337
1237.09,1.460566502
1239.94,1.460534605
1242.8,1.460502646
1245.66,1.460470623
1248.53,1.460438535
1251.41,1.460406383
1254.3,1.460374164
1257.19,1.46034188
1260.09,1.460309528
1262.99,1.460277108
1265.9,1.460244619
1268.82,1.46021206
1271.74,1.460179432
1274.68,1.460146732
1277.61,1.460113961
1280.56,1.460081117
1283.51,1.460048199
1286.47,1.460015208
1289.44,1.459982141
1292.41,1.459949
1295.39,1.459915781
1298.37,1.459882486
1301.37,1.459849112
1304.37,1.45981566
1307.37,1.459782129
1310.39,1.459748517
1313.41,1.459714824
1316.44,1.459681049
1319.47,1.459647191
1322.51,1.45961325
1325.56,1.459579225
1328.62,1.459545115
1331.68,1.459510919
1334.75,1.459476636
1337.83,1.459442266
1340.91,1.459407808
1344,1.45937326
1347.1,1.459338623
1350.21,1.459303895
1353.32,1.459269075
1356.44,1.459234163
1359.56,1.459199158
1362.7,1.459164059
1365.84,1.459128866
1368.99,1.459093576
1372.14,1.45905819
1375.31,1.459022707
1378.48,1.458987126
1381.66,1.458951445
1384.84,1.458915665
1388.03,1.458879784
1391.23,1.458843802
1394.44,1.458807717
1397.65,1.458771529
1400.88,1.458735237
1404.11,1.45869884
1407.34,1.458662337
1410.59,1.458625727
1413.84,1.45858901
1417.1,1.458552185
1420.36,1.45851525
1423.64,1.458478204
1426.92,1.458441048
1430.21,1.45840378
1433.51,1.458366398
1436.81,1.458328904
1440.12,1.458291294
1443.44,1.458253569
1446.77,1.458215727
1450.11,1.458177768
1453.45,1.45813969
1456.8,1.458101494
1460.16,1.458063177
1463.52,1.458024739
1466.9,1.457986179
1470.28,1.457947496
1473.67,1.45790869
1477.07,1.457869758
1480.47,1.457830701
1483.88,1.457791517
1487.3,1.457752206
1490.73,1.457712766
1494.17,1.457673196
1497.61,1.457633496
1501.07,1.457593664
1504.53,1.4575537
1507.99,1.457513602
1511.47,1.45747337
1514.96,1.457433003
1518.45,1.457392499
1521.95,1.457351858
1525.46,1.457311079
1528.97,1.45727016
1532.5,1.457229101
1536.03,1.4571879
1539.57,1.457146557
1543.12,1.457105071
1546.68,1.45706344
1550.24,1.457021664
1553.82,1.456979741
1557.4,1.456937671
1560.99,1.456895453
1564.59,1.456853084
1568.19,1.456810565
1571.81,1.456767895
1575.43,1.456725071
1579.06,1.456682094
1582.7,1.456638962
1586.35,1.456595674
1590.01,1.456552229
1593.68,1.456508626
1597.35,1.456464863
1601.03,1.45642094
1604.72,1.456376856
1608.42,1.456332609
1612.13,1.456288199
1615.85,1.456243624
1619.57,1.456198883
1623.3,1.456153975
1627.05,1.456108899
1630.8,1.456063654
1634.56,1.456018238
1638.32,1.455972651
1642.1,1.455926891
1645.89,1.455880958
1649.68,1.455834849
1653.48,1.455788564
1657.3,1.455742102
1661.12,1.455695461
1664.94,1.45564864
1668.78,1.455601639
1672.63,1.455554455
1676.49,1.455507088
1680.35,1.455459537
1684.22,1.455411799
1688.11,1.455363875
1692,1.455315763
1695.9,1.455267461
1699.81,1.455218968
1703.73,1.455170283
1707.65,1.455121405
1711.59,1.455072333
1715.54,1.455023065
1719.49,1.4549736
1723.45,1.454923936
1727.43,1.454874073
1731.41,1.454824009
1735.4,1.454773743
1739.4,1.454723273
1743.41,1.454672598
1747.43,1.454621717
1751.46,1.454570629
1755.5,1.454519331
1759.54,1.454467823
1763.6,1.454416104
1767.66,1.454364172
1771.74,1.454312026
1775.82,1.454259663
1779.92,1.454207084
1784.02,1.454154286
1788.13,1.454101269
1792.26,1.454048029
1796.39,1.453994567
1800.53,1.453940881
1804.68,1.45388697
1808.84,1.453832831
1813.01,1.453778464
1817.19,1.453723866
1821.38,1.453669037
1825.58,1.453613975
1829.78,1.453558679
1834,1.453503147
1838.23,1.453447377
1842.47,1.453391368
1846.71,1.453335119
1850.97,1.453278627
1855.24,1.453221892
1859.52,1.453164912
1863.8,1.453107684
1868.1,1.453050209
1872.41,1.452992483
1876.72,1.452934506
1881.05,1.452876275
1885.38,1.45281779
1889.73,1.452759049
1894.09,1.452700049
1898.45,1.452640789
1902.83,1.452581268
1907.22,1.452521484
1911.61,1.452461435
1916.02,1.45240112
1920.44,1.452340536
1924.86,1.452279682
1929.3,1.452218556
1933.75,1.452157157
1938.21,1.452095483
1942.67,1.452033531
1947.15,1.451971301
1951.64,1.451908789
1956.14,1.451845996
1960.65,1.451782918
1965.17,1.451719554
1969.7,1.451655901
1974.24,1.451591959
1978.79,1.451527725
1983.35,1.451463196
1987.92,1.451398373
1992.51,1.451333251
1997.1,1.45126783
2001.7,1.451202107
2006.32,1.45113608
2010.94,1.451069747
2015.58,1.451003107
2020.23,1.450936157
2024.88,1.450868895
2029.55,1.450801319
2034.23,1.450733427
2038.92,1.450665217
2043.62,1.450596686
2048.33,1.450527832
2053.05,1.450458654
2057.78,1.450389148
2062.53,1.450319313
2067.28,1.450249146
2072.05,1.450178646
2076.82,1.450107809
2081.61,1.450036633
2086.41,1.449965116
2091.22,1.449893256
2096.04,1.449821049
2100.87,1.449748494
2105.72,1.449675588
2110.57,1.449602328
2115.44,1.449528713
2120.31,1.449454738
2125.2,1.449380402
2130.1,1.449305701
2135.01,1.449230634
2139.93,1.449155197
2144.86,1.449079387
2149.81,1.449003202
2154.76,1.448926639
2159.73,1.448849694
2164.71,1.448772365
2169.7,1.448694649
2174.7,1.448616541
2179.72,1.448538041
2184.74,1.448459144
2189.78,1.448379847
2194.82,1.448300146
2199.88,1.448220039
2204.96,1.448139522
2210.04,1.448058591
2215.13,1.447977244
2220.24,1.447895475
2225.36,1.447813283
2230.49,1.447730663
2235.63,1.447647611
2240.78,1.447564125
2245.95,1.447480198
2251.13,1.44739583
2256.32,1.447311014
2261.52,1.447225747
2266.73,1.447140025
2271.96,1.447053845
2277.19,1.446967202
2282.44,1.446880092
2287.7,1.44679251
2292.98,1.446704453
2298.26,1.446615916
2303.56,1.446526896
2308.87,1.446437387
2314.19,1.446347385
2319.53,1.446256886
2324.88,1.446165887
2330.24,1.446074381
2335.61,1.445982365
2340.99,1.445889834
2346.39,1.445796784
2351.8,1.445703211
2357.22,1.44560911
2362.65,1.445514476
2368.1,1.445419304
2373.56,1.445323593
2379.03,1.445227334
2384.51,1.445130525
2390.01,1.445033161
2395.52,1.444935236
2401.04,1.444836747
2406.58,1.44473769
2412.13,1.444638058
2417.69,1.444537848
2423.26,1.444437054
2428.85,1.444335672
2434.44,1.444233696
2440.06,1.44413112
2445.68,1.444027941
2451.32,1.443924151
2456.97,1.443819744
2462.63,1.443714715
2468.31,1.443609056
2474,1.44350276
2479.7,1.44339582
2485.42,1.443288227
2491.15,1.44317997
2496.89,1.443071042
2502.65,1.44296143
2508.42,1.442851123
2514.2,1.442740105
2520,1.442628362
2525.81,1.442515876
2531.63,1.442402627
2537.46,1.442288595
2543.31,1.442173752
2549.18,1.442058069
2555.05,1.441941512
2560.94,1.441824044
2566.85,1.441705616
2572.76,1.441586177
2578.69,1.441465663
2584.64,1.441343999
2590.6,1.441221096
2596.57,1.441096846
2602.55,1.440971114
2608.55,1.440843738
2614.57,1.440714509
2620.59,1.440583162
2626.64,1.440449341
2632.69,1.440312565
2638.76,1.440172151
2644.84,1.440027105
2650.94,1.439875983
2657.05,1.43971678
2663.18,1.439547044
2669.32,1.439364534
2675.47,1.439168772
2681.64,1.438963458
2687.82,1.438758826
2694.01,1.438572099
2700.22,1.438424124
2706.45,1.438332078
2712.69,1.438301139
2718.94,1.438320094
2725.21,1.438364469
2731.49,1.438406258
2737.79,1.438424874
2744.1,1.438413188
2750.43,1.438376152
2756.77,1.438324269
2763.12,1.438266637
2769.49,1.438207214
2775.87,1.438144989
2782.27,1.438076486
2788.69,1.437998457
2795.12,1.437909458
2801.56,1.437810051
2808.02,1.437702098
2814.49,1.437587815
2820.98,1.437469006
2827.48,1.43734669
2834,1.437221124
2840.53,1.437092035
2847.08,1.436958962
2853.64,1.436821533
2860.22,1.436679656
2866.82,1.436533576
2873.42,1.436383839
2880.05,1.4362312
2886.69,1.436076509
2893.34,1.435920598
2900.01,1.435764204
2906.7,1.435607909
2913.4,1.435452131
2920.11,1.435297115
2926.85,1.435142965
2933.59,1.434989662
2940.36,1.434837101
2947.13,1.434685129
2953.93,1.434533549
2960.74,1.434382167
2967.56,1.434230781
2974.4,1.434079209
2981.26,1.433927281
2988.13,1.433774853
2995.02,1.433621792
3001.93,1.43346799
3008.85,1.43331336
3015.78,1.433157821
3022.73,1.433001309
3029.7,1.432843773
3036.69,1.432685171
3043.69,1.432525471
3050.7,1.432364644
3057.74,1.432202674
