wavelength (nm),refractive index
200,1.55179
200.2,1.55152
200.4,1.55124
200.6,1.55097
200.8,1.5507
201,1.55042
201.2,1.55015
201.4,1.54988
201.6,1.54961
201.8,1.54934
202,1.54907
202.2,1.5488
202.4,1.54853
202.6,1.54826
202.8,1.548
203,1.54773
203.2,1.54746
203.4,1.5472
203.6,1.54693
203.8,1.54667
204,1.5464
204.2,1.54614
204.4,1.54587
204.6,1.54561
204.8,1.54535
205,1.54508
205.2,1.54482
205.4,1.54456
205.6,1.5443
205.8,1.54404
206,1.54378
206.2,1.54352
206.4,1.54326
206.6,1.543
206.8,1.54275
207,1.54251
207.2,1.54226
207.4,1.54201
207.6,1.54177
207.8,1.54152
208,1.54128
208.2,1.54103
208.4,1.54079
208.6,1.54054
208.8,1.5403
209,1.54006
209.2,1.53982
209.4,1.53957
209.6,1.53933
209.8,1.53909
210,1.53885
210.2,1.53861
210.4,1.53837
210.6,1.53813
210.8,1.53789
211,1.53765
211.2,1.53741
211.4,1.53718
211.6,1.53694
211.8,1.5367
212,1.53647
212.2,1.53623
212.4,1.53599
212.6,1.53576
212.8,1.53552
213,1.53529
213.2,1.53506
213.4,1.53482
213.6,1.53459
213.8,1.53436
214,1.53415
214.2,1.53395
214.4,1.53375
214.6,1.53356
214.8,1.53337
215,1.53318
215.2,1.533
215.4,1.53281
215.6,1.53263
215.8,1.53244
216,1.53226
216.2,1.53207
216.4,1.53189
216.6,1.5317
216.8,1.53152
217,1.53134
217.2,1.53115
217.4,1.53097
217.6,1.53079
217.8,1.5306
218,1.53042
218.2,1.53024
218.4,1.53006
218.6,1.52988
218.8,1.5297
219,1.52952
219.2,1.52934
219.4,1.52916
219.6,1.52898
219.8,1.5288
220,1.52862
220.2,1.52844
220.4,1.52826
220.6,1.52809
220.8,1.52791
221,1.52773
221.2,1.52755
221.4,1.52738
221.6,1.5272
221.8,1.52702
222,1.52685
222.2,1.52667
222.4,1.5265
222.6,1.52632
222.8,1.52615
223,1.52597
223.2,1.5258
223.4,1.52563
223.6,1.52545
223.8,1.52528
224,1.52511
224.2,1.52493
224.4,1.52476
224.6,1.52459
224.8,1.52442
225,1.52425
225.2,1.52407
225.4,1.5239
225.6,1.52373
225.8,1.52356
226,1.52339
226.2,1.52322
226.4,1.52305
226.6,1.52288
226.8,1.52272
227,1.52256
227.2,1.52241
227.4,1.52225
227.6,1.5221
227.8,1.52194
228,1.52178
228.2,1.52163
228.4,1.52148
228.6,1.52132
228.8,1.52117
229,1.52101
229.2,1.52086
229.4,1.52071
229.6,1.52055
229.8,1.5204
230,1.52025
230.2,1.5201
230.4,1.51995
230.6,1.51981
230.8,1.51966
231,1.51952
231.2,1.51938
231.4,1.51923
231.6,1.51909
231.8,1.51895
232,1.5188
232.2,1.51866
232.4,1.51852
232.6,1.51838
232.8,1.51823
233,1.51809
233.2,1.51795
233.4,1.51781
233.6,1.51767
233.8,1.51753
234,1.51739
234.2,1.51725
234.4,1.51711
234.6,1.51697
234.8,1.51683
235,1.51669
235.2,1.51655
235.4,1.51641
235.6,1.51627
235.8,1.51613
236,1.516
236.2,1.51586
236.4,1.51572
236.6,1.51558
236.8,1.51545
237,1.51531
237.2,1.51517
237.4,1.51504
237.6,1.5149
237.8,1.51476
238,1.51463
238.2,1.5145
238.4,1.51437
238.6,1.51424
238.8,1.51411
239,1.51398
239.2,1.51385
239.4,1.51373
239.6,1.5136
239.8,1.51347
240,1.51334
240.2,1.51322
240.4,1.5131
240.6,1.51297
240.8,1.51285
241,1.51273
241.2,1.51261
241.4,1.51248
241.6,1.51236
241.8,1.51224
242,1.51212
242.2,1.512
242.4,1.51188
242.6,1.51176
242.8,1.51164
243,1.51152
243.2,1.5114
243.4,1.51128
243.6,1.51116
243.8,1.51104
244,1.51092
244.2,1.5108
244.4,1.51068
244.6,1.51056
244.8,1.51044
245,1.51032
245.2,1.5102
245.4,1.51009
245.6,1.50997
245.8,1.50985
246,1.50973
246.2,1.50962
246.4,1.5095
246.6,1.50938
246.8,1.50926
247,1.50915
247.2,1.50903
247.4,1.50892
247.6,1.5088
247.8,1.50868
248,1.50857
248.2,1.50845
248.4,1.50834
248.6,1.50824
248.8,1.50813
249,1.50803
249.2,1.50792
249.4,1.50782
249.6,1.50771
249.8,1.50761
250,1.50751
250.2,1.5074
250.4,1.5073
250.6,1.5072
250.8,1.50709
251,1.50699
251.2,1.50689
251.4,1.50678
251.6,1.50668
251.8,1.50658
252,1.50647
252.2,1.50637
252.4,1.50627
252.6,1.50617
252.8,1.50607
253,1.50596
253.2,1.50586
253.4,1.50576
253.6,1.50566
253.8,1.50556
254,1.50546
254.2,1.50536
254.4,1.50526
254.6,1.50516
254.8,1.50506
255,1.50496
255.2,1.50486
255.4,1.50476
255.6,1.50466
255.8,1.50456
256,1.50446
256.2,1.50436
256.4,1.50426
256.6,1.50416
256.8,1.50406
257,1.50396
257.2,1.50387
257.4,1.50377
257.6,1.50367
257.8,1.50357
258,1.50347
258.2,1.50337
258.4,1.50328
258.6,1.50318
258.8,1.50308
259,1.50299
259.2,1.50289
259.4,1.50279
259.6,1.50269
259.8,1.5026
260,1.5025
260.2,1.5024
260.4,1.50231
260.6,1.50221
260.8,1.50212
261,1.50202
261.2,1.50193
261.4,1.50183
261.6,1.50173
261.8,1.50164
262,1.50154
262.2,1.50145
262.4,1.50135
262.6,1.50126
262.8,1.50117
263,1.50107
263.2,1.50098
263.4,1.50088
263.6,1.50079
263.8,1.50069
264,1.5006
264.2,1.50051
264.4,1.50041
264.6,1.50032
264.8,1.50023
265,1.50013
265.2,1.50004
265.4,1.49996
265.6,1.49987
265.8,1.49978
266,1.4997
266.2,1.49961
266.4,1.49953
266.6,1.49944
266.8,1.49935
267,1.49927
267.2,1.49918
267.4,1.4991
267.6,1.49901
267.8,1.49893
268,1.49884
268.2,1.49876
268.4,1.49867
268.6,1.49859
268.8,1.49851
269,1.49842
269.2,1.49834
269.4,1.49825
269.6,1.49817
269.8,1.49809
270,1.498
270.2,1.49792
270.4,1.49784
270.6,1.49776
270.8,1.49768
271,1.4976
271.2,1.49752
271.4,1.49744
271.6,1.49736
271.8,1.49728
272,1.4972
272.2,1.49713
272.4,1.49705
272.6,1.49697
272.8,1.49689
273,1.49681
273.2,1.49673
273.4,1.49665
273.6,1.49657
273.8,1.4965
274,1.49642
274.2,1.49634
274.4,1.49626
274.6,1.49618
274.8,1.49611
275,1.49603
275.2,1.49595
275.4,1.49587
275.6,1.4958
275.8,1.49572
276,1.49565
276.2,1.49557
276.4,1.4955
276.6,1.49542
276.8,1.49535
277,1.49527
277.2,1.4952
277.4,1.49512
277.6,1.49505
277.8,1.49498
278,1.4949
278.2,1.49483
278.4,1.49475
278.6,1.49468
278.8,1.49461
279,1.49453
279.2,1.49446
279.4,1.49439
279.6,1.49431
279.8,1.49424
280,1.49417
280.2,1.49409
280.4,1.49402
280.6,1.49395
280.8,1.49388
281,1.49381
281.2,1.49374
281.4,1.49367
281.6,1.4936
281.8,1.49354
282,1.49347
282.2,1.4934
282.4,1.49333
282.6,1.49326
282.8,1.49319
283,1.49312
283.2,1.49305
283.4,1.49299
283.6,1.49292
283.8,1.49285
284,1.49278
284.2,1.49271
284.4,1.49265
284.6,1.49258
284.8,1.49251
285,1.49244
285.2,1.49237
285.4,1.49231
285.6,1.49224
285.8,1.49217
286,1.49211
286.2,1.49204
286.4,1.49197
286.6,1.4919
286.8,1.49184
287,1.49177
287.2,1.4917
287.4,1.49164
287.6,1.49157
287.8,1.4915
288,1.49144
288.2,1.49137
288.4,1.49131
288.6,1.49124
288.8,1.49117
289,1.49111
289.2,1.49104
289.4,1.49098
289.6,1.49091
289.8,1.49085
290,1.49079
290.2,1.49073
290.4,1.49066
290.6,1.4906
290.8,1.49054
291,1.49048
291.2,1.49042
291.4,1.49035
291.6,1.49029
291.8,1.49023
292,1.49017
292.2,1.49011
292.4,1.49004
292.6,1.48998
292.8,1.48992
293,1.48986
293.2,1.4898
293.4,1.48974
293.6,1.48968
293.8,1.48961
294,1.48955
294.2,1.48949
294.4,1.48943
294.6,1.48937
294.8,1.48931
295,1.48925
295.2,1.48919
295.4,1.48913
295.6,1.48907
295.8,1.48901
296,1.48895
296.2,1.48889
296.4,1.48883
296.6,1.48877
296.8,1.48871
297,1.48865
297.2,1.48859
297.4,1.48854
297.6,1.48848
297.8,1.48842
298,1.48836
298.2,1.48831
298.4,1.48825
298.6,1.48819
298.8,1.48814
299,1.48808
299.2,1.48802
299.4,1.48796
299.6,1.48791
299.8,1.48785
300,1.48779
300.2,1.48774
300.4,1.48768
300.6,1.48762
300.8,1.48757
301,1.48751
301.2,1.48746
301.4,1.4874
301.6,1.48734
301.8,1.48729
302,1.48723
302.2,1.48718
302.4,1.48713
302.6,1.48707
302.8,1.48702
303,1.48697
303.2,1.48692
303.4,1.48687
303.6,1.48682
303.8,1.48677
304,1.48671
304.2,1.48666
304.4,1.48661
304.6,1.48656
304.8,1.48651
305,1.48646
305.2,1.48641
305.4,1.48636
305.6,1.48631
305.8,1.48626
306,1.48621
306.2,1.48616
306.4,1.48611
306.6,1.48606
306.8,1.48601
307,1.48596
307.2,1.48591
307.4,1.48586
307.6,1.48581
307.8,1.48576
308,1.48571
308.2,1.48566
308.4,1.48561
308.6,1.48556
308.8,1.48551
309,1.48546
309.2,1.48541
309.4,1.48536
309.6,1.48531
309.8,1.48526
310,1.48521
310.2,1.48516
310.4,1.48511
310.6,1.48506
310.8,1.48502
311,1.48497
311.2,1.48492
311.4,1.48487
311.6,1.48482
311.8,1.48477
312,1.48472
312.2,1.48467
312.4,1.48463
312.6,1.48458
312.8,1.48453
313,1.48448
313.2,1.48443
313.4,1.48438
313.6,1.48434
313.8,1.48429
314,1.48424
314.2,1.48419
314.4,1.48414
314.6,1.4841
314.8,1.48405
315,1.484
315.2,1.48395
315.4,1.48391
315.6,1.48386
315.8,1.48381
316,1.48376
316.2,1.48372
316.4,1.48367
316.6,1.48362
316.8,1.48358
317,1.48353
317.2,1.48348
317.4,1.48343
317.6,1.48339
317.8,1.48334
318,1.48329
318.2,1.48325
318.4,1.4832
318.6,1.48315
318.8,1.48311
319,1.48306
319.2,1.48301
319.4,1.48297
319.6,1.48292
319.8,1.48287
320,1.48283
320.2,1.48278
320.4,1.48274
320.6,1.48269
320.8,1.48264
321,1.4826
321.2,1.48255
321.4,1.48251
321.6,1.48246
321.8,1.48241
322,1.48237
322.2,1.48232
322.4,1.48228
322.6,1.48223
322.8,1.48219
323,1.48214
323.2,1.4821
323.4,1.48205
323.6,1.48201
323.8,1.48196
324,1.48192
324.2,1.48187
324.4,1.48183
324.6,1.48178
324.8,1.48174
325,1.48169
325.2,1.48165
325.4,1.4816
325.6,1.48156
325.8,1.48151
326,1.48147
326.2,1.48142
326.4,1.48138
326.6,1.48133
326.8,1.48129
327,1.48124
327.2,1.4812
327.4,1.48116
327.6,1.48111
327.8,1.48107
328,1.48102
328.2,1.48098
328.4,1.48094
328.6,1.48089
328.8,1.48085
329,1.4808
329.2,1.48076
329.4,1.48072
329.6,1.48067
329.8,1.48063
330,1.48059
330.2,1.48054
330.4,1.4805
330.6,1.48046
330.8,1.48042
331,1.48038
331.2,1.48034
331.4,1.4803
331.6,1.48026
331.8,1.48022
332,1.48018
332.2,1.48014
332.4,1.4801
332.6,1.48006
332.8,1.48002
333,1.47999
333.2,1.47995
333.4,1.47991
333.6,1.47987
333.8,1.47983
334,1.47979
334.2,1.47975
334.4,1.47971
334.6,1.47967
334.8,1.47963
335,1.4796
335.2,1.47956
335.4,1.47952
335.6,1.47948
335.8,1.47944
336,1.4794
336.2,1.47937
336.4,1.47933
336.6,1.47929
336.8,1.47925
337,1.47921
337.2,1.47918
337.4,1.47914
337.6,1.4791
337.8,1.47906
338,1.47902
338.2,1.47899
338.4,1.47895
338.6,1.47891
338.8,1.47887
339,1.47884
339.2,1.4788
339.4,1.47876
339.6,1.47872
339.8,1.47869
340,1.47865
340.2,1.47861
340.4,1.47857
340.6,1.47854
340.8,1.4785
341,1.47846
341.2,1.47843
341.4,1.47839
341.6,1.47836
341.8,1.47832
342,1.47828
342.2,1.47825
342.4,1.47821
342.6,1.47818
342.8,1.47814
343,1.4781
343.2,1.47807
343.4,1.47803
343.6,1.478
343.8,1.47796
344,1.47792
344.2,1.47789
344.4,1.47785
344.6,1.47782
344.8,1.47778
345,1.47775
345.2,1.47771
345.4,1.47768
345.6,1.47764
345.8,1.4776
346,1.47757
346.2,1.47753
346.4,1.4775
346.6,1.47746
346.8,1.47743
347,1.4774
347.2,1.47736
347.4,1.47733
347.6,1.4773
347.8,1.47726
348,1.47723
348.2,1.47719
348.4,1.47716
348.6,1.47713
348.8,1.47709
349,1.47706
349.2,1.47703
349.4,1.47699
349.6,1.47696
349.8,1.47693
350,1.47689
350.2,1.47686
350.4,1.47683
350.6,1.4768
350.8,1.47676
351,1.47673
351.2,1.4767
351.4,1.47666
351.6,1.47663
351.8,1.4766
352,1.47657
352.2,1.47653
352.4,1.4765
352.6,1.47647
352.8,1.47643
353,1.4764
353.2,1.47637
353.4,1.47634
353.6,1.4763
353.8,1.47627
354,1.47624
354.2,1.47621
354.4,1.47618
354.6,1.47614
354.8,1.47611
355,1.47608
355.2,1.47605
355.4,1.47601
355.6,1.47598
355.8,1.47595
356,1.47592
356.2,1.47589
356.4,1.47585
356.6,1.47582
356.8,1.47579
357,1.47576
357.2,1.47573
357.4,1.47569
357.6,1.47566
357.8,1.47563
358,1.4756
358.2,1.47557
358.4,1.47554
358.6,1.4755
358.8,1.47547
359,1.47544
359.2,1.47541
359.4,1.47538
359.6,1.47535
359.8,1.47532
360,1.47528
360.2,1.47525
360.4,1.47522
360.6,1.47519
360.8,1.47516
361,1.47513
361.2,1.4751
361.4,1.47507
361.6,1.47504
361.8,1.47501
362,1.47498
362.2,1.47495
362.4,1.47492
362.6,1.47489
362.8,1.47486
363,1.47483
363.2,1.4748
363.4,1.47477
363.6,1.47474
363.8,1.47471
364,1.47468
364.2,1.47465
364.4,1.47462
364.6,1.47459
364.8,1.47456
365,1.47453
365.2,1.4745
365.4,1.47448
365.6,1.47445
365.8,1.47442
366,1.4744
366.2,1.47437
366.4,1.47434
366.6,1.47431
366.8,1.47429
367,1.47426
367.2,1.47423
367.4,1.4742
367.6,1.47418
367.8,1.47415
368,1.47412
368.2,1.4741
368.4,1.47407
368.6,1.47404
368.8,1.47402
369,1.47399
369.2,1.47396
369.4,1.47393
369.6,1.47391
369.8,1.47388
370,1.47385
370.2,1.47383
370.4,1.4738
370.6,1.47377
370.8,1.47375
371,1.47372
371.2,1.47369
371.4,1.47367
371.6,1.47364
371.8,1.47361
372,1.47359
372.2,1.47356
372.4,1.47354
372.6,1.47351
372.8,1.47348
373,1.47346
373.2,1.47343
373.4,1.4734
373.6,1.47338
373.8,1.47335
374,1.47332
374.2,1.4733
374.4,1.47327
374.6,1.47325
374.8,1.47322
375,1.47319
375.2,1.47317
375.4,1.47314
375.6,1.47312
375.8,1.47309
376,1.47306
376.2,1.47304
376.4,1.47301
376.6,1.47299
376.8,1.47296
377,1.47294
377.2,1.47291
377.4,1.47288
377.6,1.47286
377.8,1.47283
378,1.47281
378.2,1.47278
378.4,1.47276
378.6,1.47273
378.8,1.4727
379,1.47268
379.2,1.47265
379.4,1.47263
379.6,1.4726
379.8,1.47258
380,1.47255
380.2,1.47253
380.4,1.4725
380.6,1.47248
380.8,1.47245
381,1.47242
381.2,1.4724
381.4,1.47237
381.6,1.47235
381.8,1.47232
382,1.4723
382.2,1.47227
382.4,1.47225
382.6,1.47222
382.8,1.4722
383,1.47217
383.2,1.47215
383.4,1.47212
383.6,1.4721
383.8,1.47207
384,1.47205
384.2,1.47202
384.4,1.472
384.6,1.47197
384.8,1.47195
385,1.47192
385.2,1.4719
385.4,1.47188
385.6,1.47185
385.8,1.47183
386,1.4718
386.2,1.47178
386.4,1.47175
386.6,1.47173
386.8,1.4717
387,1.47168
387.2,1.47165
387.4,1.47163
387.6,1.47161
387.8,1.47158
388,1.47156
388.2,1.47153
388.4,1.47151
388.6,1.47148
388.8,1.47146
389,1.47144
389.2,1.47141
389.4,1.47139
389.6,1.47136
389.8,1.47134
390,1.47131
390.2,1.47129
390.4,1.47127
390.6,1.47124
390.8,1.47122
391,1.47119
391.2,1.47117
391.4,1.47115
391.6,1.47112
391.8,1.4711
392,1.47107
392.2,1.47105
392.4,1.47103
392.6,1.471
392.8,1.47098
393,1.47096
393.2,1.47093
393.4,1.47091
393.6,1.47088
393.8,1.47086
394,1.47084
394.2,1.47081
394.4,1.47079
394.6,1.47077
394.8,1.47074
395,1.47072
395.2,1.4707
395.4,1.47067
395.6,1.47065
395.8,1.47063
396,1.4706
396.2,1.47058
396.4,1.47055
396.6,1.47053
396.8,1.47051
397,1.47048
397.2,1.47046
397.4,1.47044
397.6,1.47042
397.8,1.47039
398,1.47037
398.2,1.47035
398.4,1.47032
398.6,1.4703
398.8,1.47028
399,1.47025
399.2,1.47023
399.4,1.47021
399.6,1.47018
399.8,1.47016
400,1.47014
400.2,1.47012
400.4,1.47009
400.6,1.47007
400.8,1.47005
401,1.47002
401.2,1.47
401.4,1.46998
401.6,1.46996
401.8,1.46993
402,1.46991
402.2,1.46989
402.4,1.46986
402.6,1.46984
402.8,1.46982
403,1.4698
403.2,1.46977
403.4,1.46975
403.6,1.46973
403.8,1.46971
404,1.46968
404.2,1.46966
404.4,1.46964
404.6,1.46962
404.8,1.4696
405,1.46958
405.2,1.46956
405.4,1.46954
405.6,1.46952
405.8,1.4695
406,1.46948
406.2,1.46945
406.4,1.46944
406.6,1.46942
406.8,1.4694
407,1.46938
407.2,1.46936
407.4,1.46934
407.6,1.46932
407.8,1.4693
408,1.46928
408.2,1.46926
408.4,1.46924
408.6,1.46922
408.8,1.4692
409,1.46918
409.2,1.46916
409.4,1.46914
409.6,1.46912
409.8,1.4691
410,1.46908
410.2,1.46906
410.4,1.46904
410.6,1.46902
410.8,1.469
411,1.46898
411.2,1.46896
411.4,1.46894
411.6,1.46892
411.8,1.4689
412,1.46888
412.2,1.46886
412.4,1.46884
412.6,1.46882
412.8,1.46881
413,1.46879
413.2,1.46877
413.4,1.46875
413.6,1.46873
413.8,1.46871
414,1.46869
414.2,1.46867
414.4,1.46865
414.6,1.46863
414.8,1.46861
415,1.46859
415.2,1.46857
415.4,1.46855
415.6,1.46854
415.8,1.46852
416,1.4685
416.2,1.46848
416.4,1.46846
416.6,1.46844
416.8,1.46842
417,1.4684
417.2,1.46838
417.4,1.46836
417.6,1.46835
417.8,1.46833
418,1.46831
418.2,1.46829
418.4,1.46827
418.6,1.46825
418.8,1.46823
419,1.46821
419.2,1.46819
419.4,1.46818
419.6,1.46816
419.8,1.46814
420,1.46812
420.2,1.4681
420.4,1.46808
420.6,1.46806
420.8,1.46804
421,1.46803
421.2,1.46801
421.4,1.46799
421.6,1.46797
421.8,1.46795
422,1.46793
422.2,1.46791
422.4,1.4679
422.6,1.46788
422.8,1.46786
423,1.46784
423.2,1.46782
423.4,1.4678
423.6,1.46779
423.8,1.46777
424,1.46775
424.2,1.46773
424.4,1.46771
424.6,1.46769
424.8,1.46768
425,1.46766
425.2,1.46764
425.4,1.46762
425.6,1.4676
425.8,1.46758
426,1.46757
426.2,1.46755
426.4,1.46753
426.6,1.46751
426.8,1.46749
427,1.46747
427.2,1.46746
427.4,1.46744
427.6,1.46742
427.8,1.4674
428,1.46738
428.2,1.46737
428.4,1.46735
428.6,1.46733
428.8,1.46731
429,1.46729
429.2,1.46728
429.4,1.46726
429.6,1.46724
429.8,1.46722
430,1.4672
430.2,1.46719
430.4,1.46717
430.6,1.46715
430.8,1.46713
431,1.46712
431.2,1.4671
431.4,1.46708
431.6,1.46706
431.8,1.46704
432,1.46703
432.2,1.46701
432.4,1.46699
432.6,1.46697
432.8,1.46696
433,1.46694
433.2,1.46692
433.4,1.4669
433.6,1.46689
433.8,1.46687
434,1.46685
434.2,1.46683
434.4,1.46682
434.6,1.4668
434.8,1.46678
435,1.46676
435.2,1.46675
435.4,1.46673
435.6,1.46671
435.8,1.46669
436,1.46668
436.2,1.46666
436.4,1.46664
436.6,1.46663
436.8,1.46661
437,1.4666
437.2,1.46658
437.4,1.46656
437.6,1.46655
437.8,1.46653
438,1.46652
438.2,1.4665
438.4,1.46648
438.6,1.46647
438.8,1.46645
439,1.46644
439.2,1.46642
439.4,1.46641
439.6,1.46639
439.8,1.46637
440,1.46636
440.2,1.46634
440.4,1.46633
440.6,1.46631
440.8,1.46629
441,1.46628
441.2,1.46626
441.4,1.46625
441.6,1.46623
441.8,1.46622
442,1.4662
442.2,1.46618
442.4,1.46617
442.6,1.46615
442.8,1.46614
443,1.46612
443.2,1.46611
443.4,1.46609
443.6,1.46608
443.8,1.46606
444,1.46604
444.2,1.46603
444.4,1.46601
444.6,1.466
444.8,1.46598
445,1.46597
445.2,1.46595
445.4,1.46594
445.6,1.46592
445.8,1.46591
446,1.46589
446.2,1.46587
446.4,1.46586
446.6,1.46584
446.8,1.46583
447,1.46581
447.2,1.4658
447.4,1.46578
447.6,1.46577
447.8,1.46575
448,1.46574
448.2,1.46572
448.4,1.46571
448.6,1.46569
448.8,1.46568
449,1.46566
449.2,1.46565
449.4,1.46563
449.6,1.46562
449.8,1.4656
450,1.46559
450.2,1.46557
450.4,1.46556
450.6,1.46554
450.8,1.46553
451,1.46551
451.2,1.46549
451.4,1.46548
451.6,1.46546
451.8,1.46545
452,1.46543
452.2,1.46542
452.4,1.46541
452.6,1.46539
452.8,1.46538
453,1.46536
453.2,1.46535
453.4,1.46533
453.6,1.46532
453.8,1.4653
454,1.46529
454.2,1.46527
454.4,1.46526
454.6,1.46524
454.8,1.46523
455,1.46521
455.2,1.4652
455.4,1.46518
455.6,1.46517
455.8,1.46515
456,1.46514
456.2,1.46512
456.4,1.46511
456.6,1.46509
456.8,1.46508
457,1.46506
457.2,1.46505
457.4,1.46504
457.6,1.46502
457.8,1.46501
458,1.46499
458.2,1.46498
458.4,1.46496
458.6,1.46495
458.8,1.46493
459,1.46492
459.2,1.4649
459.4,1.46489
459.6,1.46488
459.8,1.46486
460,1.46485
460.2,1.46483
460.4,1.46482
460.6,1.4648
460.8,1.46479
461,1.46477
461.2,1.46476
461.4,1.46475
461.6,1.46473
461.8,1.46472
462,1.4647
462.2,1.46469
462.4,1.46467
462.6,1.46466
462.8,1.46464
463,1.46463
463.2,1.46462
463.4,1.4646
463.6,1.46459
463.8,1.46457
464,1.46456
464.2,1.46454
464.4,1.46453
464.6,1.46452
464.8,1.4645
465,1.46449
465.2,1.46447
465.4,1.46446
465.6,1.46445
465.8,1.46443
466,1.46442
466.2,1.4644
466.4,1.46439
466.6,1.46438
466.8,1.46436
467,1.46435
467.2,1.46433
467.4,1.46432
467.6,1.46431
467.8,1.46429
468,1.46428
468.2,1.46426
468.4,1.46425
468.6,1.46424
468.8,1.46423
469,1.46421
469.2,1.4642
469.4,1.46419
469.6,1.46417
469.8,1.46416
470,1.46415
470.2,1.46413
470.4,1.46412
470.6,1.46411
470.8,1.46409
471,1.46408
471.2,1.46407
471.4,1.46406
471.6,1.46404
471.8,1.46403
472,1.46402
472.2,1.464
472.4,1.46399
472.6,1.46398
472.8,1.46397
473,1.46395
473.2,1.46394
473.4,1.46393
473.6,1.46391
473.8,1.4639
474,1.46389
474.2,1.46388
474.4,1.46386
474.6,1.46385
474.8,1.46384
475,1.46382
475.2,1.46381
475.4,1.4638
475.6,1.46379
475.8,1.46377
476,1.46376
476.2,1.46375
476.4,1.46374
476.6,1.46372
476.8,1.46371
477,1.4637
477.2,1.46368
477.4,1.46367
477.6,1.46366
477.8,1.46365
478,1.46363
478.2,1.46362
478.4,1.46361
478.6,1.4636
478.8,1.46358
479,1.46357
479.2,1.46356
479.4,1.46355
479.6,1.46353
479.8,1.46352
480,1.46351
480.2,1.4635
480.4,1.46348
480.6,1.46347
480.8,1.46346
481,1.46345
481.2,1.46343
481.4,1.46342
481.6,1.46341
481.8,1.4634
482,1.46338
482.2,1.46337
482.4,1.46336
482.6,1.46335
482.8,1.46333
483,1.46332
483.2,1.46331
483.4,1.4633
483.6,1.46329
483.8,1.46327
484,1.46326
484.2,1.46325
484.4,1.46324
484.6,1.46322
484.8,1.46321
485,1.4632
485.2,1.46319
485.4,1.46317
485.6,1.46316
485.8,1.46315
486,1.46314
486.2,1.46313
486.4,1.46311
486.6,1.4631
486.8,1.46309
487,1.46308
487.2,1.46307
487.4,1.46306
487.6,1.46304
487.8,1.46303
488,1.46302
488.2,1.46301
488.4,1.463
488.6,1.46299
488.8,1.46297
489,1.46296
489.2,1.46295
489.4,1.46294
489.6,1.46293
489.8,1.46292
490,1.4629
490.2,1.46289
490.4,1.46288
490.6,1.46287
490.8,1.46286
491,1.46285
491.2,1.46284
491.4,1.46282
491.6,1.46281
491.8,1.4628
492,1.46279
492.2,1.46278
492.4,1.46277
492.6,1.46276
492.8,1.46274
493,1.46273
493.2,1.46272
493.4,1.46271
493.6,1.4627
493.8,1.46269
494,1.46268
494.2,1.46266
494.4,1.46265
494.6,1.46264
494.8,1.46263
495,1.46262
495.2,1.46261
495.4,1.4626
495.6,1.46258
495.8,1.46257
496,1.46256
